#The following tables show the relative spectral response (RSR) curves of the FIS photometric bands. Filter transmittance and detector spectral responsivity are taken into account.
#These response data are for the energy dimension, i.e., \lambda * F_\lambda or 
#u * F_
#u. They are normalized at the central wavelength.
#The data shown here are 'typical' ones for every bands. Each pixel of the FIS detectors has slightly different characteristic, which we are trying to determine. Especially the long-wavelength cut-off of the LW channel varies in wide range of approx. 160--185 micron. More detailed information useful for data analysis will be provided later.
#These data are essentially  equivalent  with those provided as 'pre-launch' version. Differences are; (1) given in frequency domain, (2) normalized at the central wavelength rather than the peak.
#http://www.ir.isas.jaxa.jp/ASTRO-F/Observation/RSRF/FIS_FAD/index.html
2222200.0   0.0   
2197600.0   0.0   
2173400.0   0.0   
2149800.0   0.0   
2126700.0   0.0   
2104100.0   0.0   
2082000.0   0.0   
2060400.0   0.0   
2039100.0   0.0   
2018300.0   0.0034189   
1998000.0   0.028281   
1978000.0   0.06873   
1958500.0   0.1122   
1939300.0   0.13781   
1920500.0   0.15282   
1902000.0   0.1617   
1883900.0   0.15747   
1866200.0   0.1723   
1848700.0   0.20166   
1831600.0   0.2714   
1814800.0   0.37952   
1798400.0   0.4232   
1782200.0   0.49845   
1766300.0   0.57938   
1750700.0   0.62776   
1735300.0   0.65894   
1720200.0   0.71464   
1705400.0   0.79466   
1690900.0   0.84437   
1676500.0   0.89813   
1662500.0   0.91746   
1648600.0   0.90574   
1635000.0   0.94494   
1621600.0   0.98238   
1608400.0   1.0022   
1595500.0   0.99885   
1582700.0   1.0016   
1570200.0   1.0415   
1557800.0   0.97754   
1545700.0   0.95884   
1533700.0   0.9524   
1521900.0   0.9177   
1510300.0   0.95696   
1498900.0   0.94189   
1487600.0   0.9653   
1476500.0   0.93692   
1465600.0   0.8171   
1454800.0   0.70081   
1444200.0   0.5053   
1433700.0   0.35942   
1423400.0   0.2172   
1413300.0   0.11975   
1403300.0   0.068327   
1393400.0   0.03496   
1383600.0   0.018019   
1374000.0   0.0086928   
1364600.0   0.0041199   
1355200.0   0.0015477   
1346000.0   0.00047457   
1336900.0   0.0   
1328000.0   0.0   
1319100.0   0.0   
1310400.0   0.0   
1301800.0   0.0   
1293300.0   0.0   
1284900.0   0.0   
1276600.0   0.0   
1268400.0   0.0   
1260300.0   0.0   
1252400.0   0.0   
1244500.0   0.0   
1236700.0   0.0   
1229100.0   0.0   
1221500.0   0.0   
1214000.0   0.0   
1206600.0   0.0   
1199300.0   0.0   
1192100.0   0.0   
1184900.0   0.0   
1177900.0   0.0   
1170900.0   0.0   
1164000.0   0.0   
1157200.0   0.0   
1150500.0   0.0   
1143800.0   0.0   
1137300.0   0.0   
1130800.0   0.0   
1124400.0   0.0   
1118000.0   0.0   
1111700.0   0.0   
1105500.0   0.0   
1099400.0   0.0   
1093300.0   0.0   
1087300.0   0.0   
1081400.0   0.0   
1075500.0   0.0   
1069700.0   0.0   
1063900.0   0.0   
1058300.0   0.0   
1052600.0   0.0   
