# ING Filter Throughput Data
# Serial Number : 197
# Filtername    : WFCH6568
# Filtersystem  : Narrow Band
# Passband      : Halpha 6568/95
# Bandwidth     : 95
# Cosmetics     : 
# Measured      : 2005-03-02 12:01:32
# Wavelength Throughput
# AA %
6300.0   0.0006   
6302.0   0.0004   
6304.0   0.0001   
6306.0   0.0001   
6308.0   0.0005   
6310.0   0.0008   
6312.0   0.0007   
6314.0   0.0006   
6316.0   0.0006   
6318.0   0.0006   
6320.0   0.0006   
6322.0   0.0003   
6324.0   4.7e-05   
6326.0   0.0001   
6328.0   0.0005   
6330.0   0.0008   
6332.0   0.0009   
6334.0   0.0009   
6336.0   0.0009   
6338.0   0.0008   
6340.0   0.0007   
6342.0   0.0006   
6344.0   0.0006   
6346.0   0.0007   
6348.0   0.0009   
6350.0   0.0012   
6352.0   0.0009   
6354.0   0.0006   
6356.0   0.0007   
6358.0   0.0012   
6360.0   0.0017   
6362.0   0.0014   
6364.0   0.001   
6366.0   0.0007   
6368.0   0.0004   
6370.0   4.2e-05   
6372.0   0.0005   
6374.0   0.0009   
6376.0   0.001   
6378.0   0.0008   
6380.0   0.0006   
6382.0   0.0007   
6384.0   0.0009   
6386.0   0.0011   
6388.0   0.0015   
6390.0   0.0018   
6392.0   0.002   
6394.0   0.0021   
6396.0   0.0023   
6398.0   0.0024   
6400.0   0.0026   
6402.0   0.0027   
6404.0   0.0028   
6406.0   0.0027   
6408.0   0.0025   
6410.0   0.0023   
6412.0   0.0028   
6414.0   0.0032   
6416.0   0.0037   
6418.0   0.0043   
6420.0   0.0048   
6422.0   0.0051   
6424.0   0.0054   
6426.0   0.0057   
6428.0   0.0062   
6430.0   0.0067   
6432.0   0.0075   
6434.0   0.0084   
6436.0   0.0094   
6438.0   0.0107   
6440.0   0.0119   
6442.0   0.0129   
6444.0   0.0139   
6446.0   0.0151   
6448.0   0.0166   
6450.0   0.018   
6452.0   0.0201   
6454.0   0.0222   
6456.0   0.0246   
6458.0   0.0273   
6460.0   0.03   
6462.0   0.0344   
6464.0   0.0388   
6466.0   0.0442   
6468.0   0.0506   
6470.0   0.057   
6472.0   0.0674   
6474.0   0.0777   
6476.0   0.0927   
6478.0   0.1124   
6480.0   0.132   
6482.0   0.1684   
6484.0   0.2048   
6486.0   0.2636   
6488.0   0.3448   
6490.0   0.426   
6492.0   0.6058   
6494.0   0.7858   
6496.0   1.1208   
6498.0   1.611   
6500.0   2.1013   
6502.0   3.3115   
6504.0   4.5221   
6506.0   6.6261   
6508.0   9.624   
6510.0   12.622   
6512.0   17.8979   
6514.0   23.1755   
6516.0   29.445   
6518.0   36.7071   
6520.0   43.9692   
6522.0   51.139   
6524.0   58.311   
6526.0   64.5923   
6528.0   69.9823   
6530.0   75.3723   
6532.0   78.0759   
6534.0   80.7804   
6536.0   82.5339   
6538.0   83.3357   
6540.0   84.1376   
6542.0   84.1297   
6544.0   84.1218   
6546.0   84.1664   
6548.0   84.2634   
6550.0   84.3605   
6552.0   84.8247   
6554.0   85.2891   
6556.0   85.7435   
6558.0   86.1879   
6560.0   86.6324   
6562.0   87.2241   
6564.0   87.816   
6566.0   88.3559   
6568.0   88.8436   
6570.0   89.3314   
6572.0   89.3825   
6574.0   89.4336   
6576.0   89.3885   
6578.0   89.2472   
6580.0   89.1059   
6582.0   88.5538   
6584.0   88.0016   
6586.0   87.4161   
6588.0   86.7974   
6590.0   86.1787   
6592.0   85.8866   
6594.0   85.5943   
6596.0   85.0226   
6598.0   84.1712   
6600.0   83.3198   
6602.0   80.9482   
6604.0   78.5757   
6606.0   74.8814   
6608.0   69.8644   
6610.0   64.8475   
6612.0   58.0682   
6614.0   51.2868   
6616.0   44.1451   
6618.0   36.6428   
6620.0   29.1405   
6622.0   23.6452   
6624.0   18.1483   
6626.0   13.6615   
6628.0   10.1856   
6630.0   6.7097   
6632.0   5.1295   
6634.0   3.5487   
6636.0   2.4353   
6638.0   1.7895   
6640.0   1.1437   
6642.0   0.896   
6644.0   0.6482   
6646.0   0.47   
6648.0   0.3614   
6650.0   0.2528   
6652.0   0.2067   
6654.0   0.1605   
6656.0   0.1248   
6658.0   0.0997   
6660.0   0.0746   
6662.0   0.0628   
6664.0   0.051   
6666.0   0.0416   
6668.0   0.0345   
6670.0   0.0274   
6672.0   0.0235   
6674.0   0.0197   
6676.0   0.0166   
6678.0   0.014   
6680.0   0.0115   
6682.0   0.0102   
6684.0   0.0089   
6686.0   0.0077   
6688.0   0.0065   
6690.0   0.0054   
6692.0   0.0046   
6694.0   0.0038   
6696.0   0.0033   
6698.0   0.0031   
6700.0   0.0029   
6702.0   0.0025   
6704.0   0.002   
6706.0   0.0018   
6708.0   0.0019   
6710.0   0.002   
6712.0   0.0021   
6714.0   0.0021   
6716.0   0.0019   
6718.0   0.0013   
6720.0   0.0008   
6722.0   0.001   
6724.0   0.0013   
6726.0   0.0014   
6728.0   0.0012   
6730.0   0.0011   
6732.0   0.0013   
6734.0   0.0015   
6736.0   0.0013   
6738.0   0.0009   
6740.0   0.0005   
6742.0   0.0007   
6744.0   0.001   
6746.0   0.001   
6748.0   0.0007   
6750.0   0.0005   
6752.0   0.0003   
6754.0   0.0001   
6756.0   -0.0001   
6758.0   -0.0001   
6760.0   -0.0002   
6762.0   4.9e-05   
6764.0   0.0003   
6766.0   0.0004   
6768.0   0.0005   
6770.0   0.0005   
6772.0   0.0005   
6774.0   0.0004   
6776.0   0.0004   
6778.0   0.0005   
6780.0   0.0006   
6782.0   0.0004   
6784.0   0.0003   
6786.0   0.0003   
6788.0   0.0003   
6790.0   0.0003   
6792.0   0.0003   
6794.0   0.0003   
6796.0   0.0002   
6798.0   0.0002   
6800.0   0.0001   
