#ING Filter Database - Filtercurve
# ING Filter Throughput Data
# Serial Number : 215
# Filtername    : WFCSloanI
# Filtersystem  : Sloan Gunn
# Passband      : i
# Bandwidth     : 1519
# Cosmetics     : Dusty needs cleaning.
# Measured      : 2005-03-02 12:02:59
# Wavelength Throughput
# nm %
6510.0   0.0005   
6515.0   0.0007   
6520.0   0.0002   
6525.0   0.0   
6530.0   0.0002   
6535.0   0.0004   
6540.0   0.0001   
6545.0   -0.0001   
6550.0   0.0004   
6555.0   0.0003   
6560.0   0.0003   
6565.0   0.0004   
6570.0   -0.0001   
6575.0   0.0005   
6580.0   0.0005   
6585.0   0.0005   
6590.0   -0.0005   
6595.0   -0.0003   
6600.0   0.0001   
6605.0   0.0005   
6610.0   -0.0001   
6615.0   0.0003   
6620.0   0.0001   
6625.0   0.0014   
6630.0   0.0018   
6635.0   0.0026   
6640.0   0.0022   
6645.0   0.0044   
6650.0   0.0053   
6655.0   0.0078   
6660.0   0.0099   
6665.0   0.0131   
6670.0   0.0183   
6675.0   0.0224   
6680.0   0.0299   
6685.0   0.0384   
6690.0   0.0509   
6695.0   0.0644   
6700.0   0.0837   
6705.0   0.1066   
6710.0   0.1359   
6715.0   0.1696   
6720.0   0.2153   
6725.0   0.268   
6730.0   0.3395   
6735.0   0.4141   
6740.0   0.5179   
6745.0   0.6311   
6750.0   0.7782   
6755.0   0.9331   
6760.0   1.1338   
6765.0   1.35   
6770.0   1.6247   
6775.0   1.909   
6780.0   2.254   
6785.0   2.6292   
6790.0   3.0735   
6795.0   3.538   
6800.0   4.0831   
6805.0   4.639   
6810.0   5.3144   
6815.0   5.9765   
6820.0   6.7502   
6825.0   7.5327   
6830.0   8.4356   
6835.0   9.3167   
6840.0   10.3091   
6845.0   11.2924   
6850.0   12.4234   
6855.0   13.468   
6860.0   14.6915   
6865.0   15.8502   
6870.0   17.1382   
6875.0   18.3749   
6880.0   19.688   
6885.0   20.9897   
6890.0   22.4289   
6895.0   23.7148   
6900.0   25.1939   
6905.0   26.5722   
6910.0   28.0117   
6915.0   29.4023   
6920.0   30.9452   
6925.0   32.2562   
6930.0   33.7546   
6935.0   35.1047   
6940.0   36.563   
6945.0   37.9461   
6950.0   39.3571   
6955.0   40.6552   
6960.0   42.0238   
6965.0   43.3106   
6970.0   44.6189   
6975.0   45.8463   
6980.0   47.1602   
6985.0   48.2629   
6990.0   49.5781   
6995.0   50.7101   
7000.0   51.8907   
7005.0   52.9614   
7010.0   54.2185   
7015.0   55.3028   
7020.0   56.4104   
7025.0   57.5586   
7030.0   58.7016   
7035.0   59.7772   
7040.0   60.9616   
7045.0   61.9858   
7050.0   63.1494   
7055.0   64.2555   
7060.0   65.3567   
7065.0   66.4538   
7070.0   67.6284   
7075.0   68.5944   
7080.0   69.6877   
7085.0   70.7021   
7090.0   71.6997   
7095.0   72.6232   
7100.0   73.6881   
7105.0   74.4763   
7110.0   75.4058   
7115.0   76.1745   
7120.0   76.7889   
7125.0   77.3878   
7130.0   78.2209   
7135.0   78.5752   
7140.0   79.055   
7145.0   79.5416   
7150.0   79.8526   
7155.0   80.1251   
7160.0   80.4828   
7165.0   80.6675   
7170.0   80.9059   
7175.0   81.0125   
7180.0   81.2201   
7185.0   81.3402   
7190.0   81.4327   
7195.0   81.6311   
7200.0   81.7363   
7205.0   81.9643   
7210.0   82.0984   
7215.0   82.2567   
7220.0   82.6974   
7225.0   82.8878   
7230.0   83.1597   
7235.0   83.4449   
7240.0   83.8328   
7245.0   84.1784   
7250.0   84.8047   
7255.0   85.1321   
7260.0   85.5687   
7265.0   86.0496   
7270.0   86.6066   
7275.0   87.0675   
7280.0   87.6665   
7285.0   88.1097   
7290.0   88.4406   
7295.0   89.0466   
7300.0   89.4686   
7305.0   89.8146   
7310.0   90.2082   
7315.0   90.5824   
7320.0   90.7894   
7325.0   90.9321   
7330.0   91.1177   
7335.0   91.0764   
7340.0   91.1831   
7345.0   91.1617   
7350.0   90.9803   
7355.0   90.8645   
7360.0   90.767   
7365.0   90.4577   
7370.0   90.0521   
7375.0   90.0017   
7380.0   89.6567   
7385.0   89.3865   
7390.0   89.2272   
7395.0   88.9114   
7400.0   88.5916   
7405.0   88.3523   
7410.0   88.1658   
7415.0   87.8411   
7420.0   87.8601   
7425.0   87.7621   
7430.0   87.703   
7435.0   87.6763   
7440.0   87.6599   
7445.0   87.8002   
7450.0   87.9232   
7455.0   88.0338   
7460.0   88.171   
7465.0   88.4715   
7470.0   88.7798   
7475.0   88.9413   
7480.0   89.3623   
7485.0   89.6092   
7490.0   90.0033   
7495.0   90.415   
7500.0   90.7058   
7505.0   91.0392   
7510.0   91.5741   
7515.0   91.8825   
7520.0   92.0651   
7525.0   92.504   
7530.0   92.7027   
7535.0   92.8438   
7540.0   93.1637   
7545.0   93.1114   
7550.0   93.2979   
7555.0   93.3227   
7560.0   93.287   
7565.0   93.3213   
7570.0   93.3344   
7575.0   93.2217   
7580.0   93.0741   
7585.0   93.0324   
7590.0   92.7883   
7595.0   92.6008   
7600.0   92.4714   
7605.0   92.2882   
7610.0   92.0846   
7615.0   92.0299   
7620.0   92.0568   
7625.0   91.7314   
7630.0   91.6318   
7635.0   91.6518   
7640.0   91.457   
7645.0   91.4353   
7650.0   91.4783   
7655.0   91.5693   
7660.0   91.5976   
7665.0   91.6947   
7670.0   91.7824   
7675.0   91.8554   
7680.0   92.2363   
7685.0   92.1287   
7690.0   92.5839   
7695.0   92.6403   
7700.0   92.6435   
7705.0   93.1344   
7710.0   93.2656   
7715.0   93.3287   
7720.0   93.6934   
7725.0   93.6026   
7730.0   93.7601   
7735.0   93.8473   
7740.0   94.0158   
7745.0   94.0273   
7750.0   94.0892   
7755.0   93.8722   
7760.0   93.9253   
7765.0   93.6248   
7770.0   93.5738   
7775.0   93.3821   
7780.0   93.1782   
7785.0   93.1146   
7790.0   92.7275   
7795.0   92.4526   
7800.0   92.1267   
7805.0   92.0795   
7810.0   91.6171   
7815.0   91.2631   
7820.0   91.0043   
7825.0   90.8915   
7830.0   90.4959   
7835.0   90.3459   
7840.0   90.0696   
7845.0   89.951   
7850.0   89.7658   
7855.0   89.6393   
7860.0   89.7751   
7865.0   89.7367   
7870.0   89.3897   
7875.0   89.4066   
7880.0   89.7167   
7885.0   89.5972   
7890.0   89.9437   
7895.0   89.983   
7900.0   90.274   
7905.0   90.3527   
7910.0   90.5469   
7915.0   90.9708   
7920.0   91.1231   
7925.0   91.3239   
7930.0   91.656   
7935.0   92.1383   
7940.0   92.3793   
7945.0   92.5276   
7950.0   92.9501   
7955.0   92.9457   
7960.0   93.1124   
7965.0   93.5119   
7970.0   93.5253   
7975.0   93.3569   
7980.0   93.6855   
7985.0   93.827   
7990.0   93.7417   
7995.0   93.709   
8000.0   93.7752   
8005.0   93.4161   
8010.0   93.4519   
8015.0   93.3667   
8020.0   92.9438   
8025.0   92.7626   
8030.0   92.5467   
8035.0   92.214   
8040.0   92.2133   
8045.0   91.8828   
8050.0   91.5782   
8055.0   91.4744   
8060.0   91.293   
8065.0   91.0662   
8070.0   90.7587   
8075.0   90.9003   
8080.0   90.6109   
8085.0   90.5134   
8090.0   90.4981   
8095.0   90.4372   
8100.0   90.3914   
8105.0   90.646   
8110.0   90.3913   
8115.0   90.7106   
8120.0   90.7085   
8125.0   90.8735   
8130.0   90.8259   
8135.0   91.2077   
8140.0   91.3711   
8145.0   91.6829   
8150.0   92.2179   
8155.0   91.9959   
8160.0   92.4855   
8165.0   92.6797   
8170.0   92.8726   
8175.0   93.2466   
8180.0   93.3283   
8185.0   93.4451   
8190.0   93.4836   
8195.0   93.8012   
8200.0   93.578   
8205.0   93.9187   
8210.0   94.0659   
8215.0   94.007   
8220.0   94.1361   
8225.0   93.8054   
8230.0   94.0949   
8235.0   93.6834   
8240.0   93.674   
8245.0   93.54   
8250.0   93.2686   
8255.0   93.0828   
8260.0   92.566   
8265.0   92.5351   
8270.0   92.3673   
8275.0   91.9337   
8280.0   91.8213   
8285.0   90.9098   
8290.0   90.9994   
8295.0   90.7079   
8300.0   90.6484   
8305.0   90.3451   
8310.0   89.7051   
8315.0   89.5923   
8320.0   89.2955   
8325.0   89.0258   
8330.0   89.0192   
8335.0   89.0469   
8340.0   88.7853   
8345.0   88.6064   
8350.0   88.461   
8355.0   88.3584   
8360.0   88.2599   
8365.0   88.5512   
8370.0   88.3289   
8375.0   88.7675   
8380.0   88.566   
8385.0   89.0691   
8390.0   88.8204   
8395.0   89.6112   
8400.0   89.2834   
8405.0   89.9714   
8410.0   90.6447   
8415.0   90.6855   
8420.0   90.8507   
8425.0   91.4743   
8430.0   91.7051   
8435.0   91.4204   
8440.0   91.3467   
8445.0   90.9804   
8450.0   90.3589   
8455.0   89.2038   
8460.0   87.1768   
8465.0   84.9228   
8470.0   81.509   
8475.0   77.8377   
8480.0   72.9602   
8485.0   68.0847   
8490.0   62.2274   
8495.0   56.5898   
8500.0   50.0782   
8505.0   44.4895   
8510.0   38.6299   
8515.0   33.5438   
8520.0   28.7139   
8525.0   24.591   
8530.0   20.6358   
8535.0   17.6505   
8540.0   14.6424   
8545.0   12.4798   
8550.0   10.4075   
8555.0   8.6932   
8560.0   7.3693   
8565.0   6.3238   
8570.0   5.2267   
8575.0   4.4493   
8580.0   3.7896   
8585.0   3.2771   
8590.0   2.7684   
8595.0   2.4112   
8600.0   2.0393   
8605.0   1.7637   
8610.0   1.49   
8615.0   1.339   
8620.0   1.1269   
8625.0   0.989   
8630.0   0.8592   
8635.0   0.7127   
8640.0   0.6687   
8645.0   0.5908   
8650.0   0.499   
8655.0   0.4383   
8660.0   0.3731   
8665.0   0.3547   
8670.0   0.2818   
8675.0   0.2782   
8680.0   0.2218   
8685.0   0.2096   
8690.0   0.2033   
8695.0   0.1725   
8700.0   0.1523   
8705.0   0.1433   
8710.0   0.1117   
8715.0   0.11   
8720.0   0.0956   
8725.0   0.0895   
8730.0   0.0733   
8735.0   0.0862   
8740.0   0.0573   
8745.0   0.0595   
8750.0   0.0587   
8755.0   0.074   
8760.0   0.0458   
8765.0   0.0271   
8770.0   0.0345   
8775.0   0.0331   
8780.0   0.02   
8785.0   0.0469   
8790.0   0.0299   
8795.0   0.0315   
8800.0   0.0136   
8805.0   0.044   
8810.0   0.027   
8815.0   0.0169   
8820.0   0.0238   
8825.0   0.0114   
8830.0   0.0229   
8835.0   0.0192   
8840.0   0.0208   
8845.0   0.0531   
8850.0   0.0279   
8855.0   0.0088   
8860.0   0.0257   
8865.0   0.0121   
8870.0   0.0072   
8875.0   0.028   
8880.0   0.0903   
8885.0   0.0127   
8890.0   0.0244   
8895.0   0.0136   
8900.0   0.0256   
8905.0   0.0178   
8910.0   -0.0269   
8915.0   0.0565   
8920.0   0.0643   
8925.0   0.0106   
8930.0   0.0007   
8935.0   0.0222   
8940.0   0.0117   
8945.0   -0.0169   
8950.0   0.0646   
8955.0   0.0494   
8960.0   0.0348   
8965.0   -0.0333   
8970.0   0.0295   
8975.0   -0.0001   
8980.0   -0.0092   
8985.0   0.064   
8990.0   0.0523   
8995.0   0.0302   
9000.0   0.0391   
