#ING Filter Database - Filtercurve
# ING Filter Throughput Data
# Serial Number : 214
# Filtername    : WFCSloanR
# Filtersystem  : Sloan Gunn
# Passband      : r
# Bandwidth     : 1347
# Cosmetics     : 
# Measured      : 2005-03-02 12:03:19
# Wavelength Throughput
# a %
5005.0   0.0002   
5010.0   0.0005   
5015.0   -0.0003   
5020.0   0.0005   
5025.0   -0.0002   
5030.0   0.0002   
5035.0   0.0001   
5040.0   0.0021   
5045.0   0.0004   
5050.0   0.0001   
5055.0   0.0001   
5060.0   0.0   
5065.0   0.0008   
5070.0   0.001   
5075.0   0.0001   
5080.0   0.0   
5085.0   -0.0002   
5090.0   0.0003   
5095.0   -0.0001   
5100.0   0.0001   
5105.0   0.0003   
5110.0   0.0001   
5115.0   -0.0009   
5120.0   -0.0001   
5125.0   -0.0001   
5130.0   0.0003   
5135.0   -0.0004   
5140.0   -0.0005   
5145.0   -0.0003   
5150.0   -0.0003   
5155.0   -0.0002   
5160.0   0.0003   
5165.0   -0.0001   
5170.0   -0.0006   
5175.0   0.0002   
5180.0   -0.0006   
5185.0   0.0004   
5190.0   -0.0003   
5195.0   -0.0005   
5200.0   -0.0007   
5205.0   -0.0006   
5210.0   0.0001   
5215.0   -0.0002   
5220.0   -0.0002   
5225.0   -0.0001   
5230.0   0.001   
5235.0   0.0002   
5240.0   -0.0002   
5245.0   0.0004   
5250.0   0.0005   
5255.0   0.0001   
5260.0   0.0004   
5265.0   0.0004   
5270.0   0.0004   
5275.0   0.0004   
5280.0   -0.0005   
5285.0   0.0006   
5290.0   -0.0002   
5295.0   0.0   
5300.0   -0.0001   
5305.0   0.0002   
5310.0   0.0   
5315.0   0.0009   
5320.0   -0.0002   
5325.0   0.0001   
5330.0   0.0004   
5335.0   0.0003   
5340.0   0.0003   
5345.0   0.0003   
5350.0   0.0001   
5355.0   0.0007   
5360.0   -0.0003   
5365.0   0.0012   
5370.0   0.0005   
5375.0   0.0015   
5380.0   0.0012   
5385.0   0.0025   
5390.0   0.0036   
5395.0   0.0066   
5400.0   0.0117   
5405.0   0.0204   
5410.0   0.0355   
5415.0   0.0581   
5420.0   0.0975   
5425.0   0.1569   
5430.0   0.2476   
5435.0   0.3801   
5440.0   0.5652   
5445.0   0.8193   
5450.0   1.1744   
5455.0   1.6234   
5460.0   2.213   
5465.0   2.9538   
5470.0   3.8709   
5475.0   4.9663   
5480.0   6.2348   
5485.0   7.6861   
5490.0   9.3581   
5495.0   11.0832   
5500.0   12.993   
5505.0   14.9641   
5510.0   17.0454   
5515.0   19.1186   
5520.0   21.2236   
5525.0   23.3666   
5530.0   25.598   
5535.0   27.7627   
5540.0   30.0245   
5545.0   32.2871   
5550.0   34.5775   
5555.0   36.8551   
5560.0   39.0988   
5565.0   41.3149   
5570.0   43.5085   
5575.0   45.4558   
5580.0   47.3129   
5585.0   48.9893   
5590.0   50.513   
5595.0   51.8567   
5600.0   52.9932   
5605.0   53.9966   
5610.0   54.9622   
5615.0   55.8528   
5620.0   56.7174   
5625.0   57.5401   
5630.0   58.4709   
5635.0   59.4212   
5640.0   60.3932   
5645.0   61.4573   
5650.0   62.5264   
5655.0   63.6568   
5660.0   64.7783   
5665.0   65.9526   
5670.0   67.0761   
5675.0   68.2386   
5680.0   69.3139   
5685.0   70.3957   
5690.0   70.8914   
5695.0   72.5802   
5700.0   73.627   
5705.0   74.5967   
5710.0   75.5769   
5715.0   76.4932   
5720.0   77.4032   
5725.0   78.2484   
5730.0   79.1144   
5735.0   79.9291   
5740.0   80.6235   
5745.0   81.3712   
5750.0   81.9152   
5755.0   82.4803   
5760.0   82.9778   
5765.0   83.4856   
5770.0   83.9158   
5775.0   84.3079   
5780.0   84.666   
5785.0   84.9738   
5790.0   85.3278   
5795.0   85.5856   
5800.0   85.8972   
5805.0   86.2375   
5810.0   86.5649   
5815.0   86.8855   
5820.0   87.1953   
5825.0   87.5101   
5830.0   87.7994   
5835.0   88.0258   
5840.0   88.2473   
5845.0   88.3531   
5850.0   88.5027   
5855.0   88.5272   
5860.0   88.43   
5865.0   88.4499   
5870.0   88.4227   
5875.0   88.2997   
5880.0   88.1438   
5885.0   88.0993   
5890.0   88.0256   
5895.0   87.9745   
5900.0   88.0647   
5905.0   88.02   
5910.0   88.1787   
5915.0   88.3198   
5920.0   88.5347   
5925.0   88.7482   
5930.0   89.0279   
5935.0   89.239   
5940.0   89.4568   
5945.0   89.7034   
5950.0   89.8038   
5955.0   89.8979   
5960.0   89.9414   
5965.0   89.8882   
5970.0   89.8702   
5975.0   89.7067   
5980.0   89.5478   
5985.0   89.3484   
5990.0   89.16   
5995.0   88.9415   
6000.0   88.6857   
6005.0   88.4799   
6010.0   88.2909   
6015.0   88.0936   
6020.0   88.0706   
6025.0   87.878   
6030.0   87.7929   
6035.0   87.8325   
6040.0   87.8333   
6045.0   87.8588   
6050.0   87.8755   
6055.0   87.8672   
6060.0   88.0128   
6065.0   88.0776   
6070.0   88.2975   
6075.0   88.3947   
6080.0   88.4931   
6085.0   88.6531   
6090.0   88.6423   
6095.0   88.6265   
6100.0   88.5667   
6105.0   88.5007   
6110.0   88.333   
6115.0   88.07   
6120.0   87.8164   
6125.0   87.5154   
6130.0   87.1671   
6135.0   86.944   
6140.0   86.6496   
6145.0   86.4104   
6150.0   86.2021   
6155.0   86.1059   
6160.0   85.9861   
6165.0   86.0248   
6170.0   86.1755   
6175.0   86.3296   
6180.0   86.5304   
6185.0   86.8012   
6190.0   87.0432   
6195.0   87.2756   
6200.0   87.5005   
6205.0   87.6559   
6210.0   87.7886   
6215.0   87.8573   
6220.0   87.7238   
6225.0   87.6316   
6230.0   87.3482   
6235.0   87.057   
6240.0   86.7463   
6245.0   86.3478   
6250.0   85.9613   
6255.0   85.6077   
6260.0   85.2223   
6265.0   84.725   
6270.0   84.3055   
6275.0   83.9366   
6280.0   83.5742   
6285.0   83.1657   
6290.0   82.8528   
6295.0   82.5671   
6300.0   82.2855   
6305.0   82.0065   
6310.0   81.7647   
6315.0   81.5633   
6320.0   81.3888   
6325.0   81.2488   
6330.0   81.2093   
6335.0   81.1876   
6340.0   81.3231   
6345.0   81.4014   
6350.0   81.6205   
6355.0   81.9385   
6360.0   82.3303   
6365.0   82.7205   
6370.0   83.1499   
6375.0   83.6589   
6380.0   84.047   
6385.0   84.4803   
6390.0   84.7887   
6395.0   85.0099   
6400.0   85.1208   
6405.0   85.0809   
6410.0   84.8934   
6415.0   84.6211   
6420.0   84.087   
6425.0   83.5055   
6430.0   82.7376   
6435.0   81.8928   
6440.0   81.0922   
6445.0   80.1557   
6450.0   79.2988   
6455.0   78.4017   
6460.0   77.607   
6465.0   76.8157   
6470.0   76.0943   
6475.0   75.561   
6480.0   74.9471   
6485.0   74.6243   
6490.0   74.3082   
6495.0   74.1202   
6500.0   74.0517   
6505.0   73.9722   
6510.0   74.1537   
6515.0   74.2855   
6520.0   74.5756   
6525.0   74.8644   
6530.0   75.2944   
6535.0   75.7086   
6540.0   76.166   
6545.0   76.6734   
6550.0   77.2252   
6555.0   77.7385   
6560.0   78.2785   
6565.0   78.7225   
6570.0   79.2375   
6575.0   79.6475   
6580.0   80.1447   
6585.0   80.3396   
6590.0   80.5712   
6595.0   80.8149   
6600.0   80.8817   
6605.0   80.7857   
6610.0   80.5697   
6615.0   80.4238   
6620.0   80.1521   
6625.0   79.7455   
6630.0   79.2741   
6635.0   78.8516   
6640.0   78.3337   
6645.0   77.9419   
6650.0   77.3666   
6655.0   76.88   
6660.0   76.4492   
6665.0   75.9743   
6670.0   75.6404   
6675.0   75.3345   
6680.0   75.0203   
6685.0   74.801   
6690.0   74.6274   
6695.0   74.5187   
6700.0   74.4806   
6705.0   74.3684   
6710.0   74.3428   
6715.0   74.4112   
6720.0   74.502   
6725.0   74.5117   
6730.0   74.6076   
6735.0   74.661   
6740.0   74.7757   
6745.0   74.8548   
6750.0   74.8302   
6755.0   74.7185   
6760.0   74.6009   
6765.0   74.3879   
6770.0   74.0645   
6775.0   73.6266   
6780.0   73.0778   
6785.0   72.1974   
6790.0   71.3079   
6795.0   70.2295   
6800.0   69.0396   
6805.0   67.7264   
6810.0   66.141   
6815.0   64.6503   
6820.0   62.9708   
6825.0   61.3673   
6830.0   59.6875   
6835.0   58.0664   
6840.0   56.6587   
6845.0   55.2587   
6850.0   53.9905   
6855.0   52.9319   
6860.0   51.9602   
6865.0   51.149   
6870.0   50.4262   
6875.0   49.8494   
6880.0   49.3162   
6885.0   48.8883   
6890.0   48.3099   
6895.0   47.8586   
6900.0   47.2593   
6905.0   46.4809   
6910.0   45.6276   
6915.0   44.5607   
6920.0   43.4384   
6925.0   42.1515   
6930.0   40.5953   
6935.0   39.0939   
6940.0   37.2011   
6945.0   35.2409   
6950.0   32.9477   
6955.0   30.3748   
6960.0   27.5493   
6965.0   24.4872   
6970.0   21.1394   
6975.0   18.0339   
6980.0   14.9594   
6985.0   12.1955   
6990.0   9.7553   
6995.0   7.7794   
7000.0   6.1428   
7005.0   4.8614   
7010.0   3.8289   
7015.0   3.06   
7020.0   2.4454   
7025.0   1.9848   
7030.0   1.6176   
7035.0   1.3413   
7040.0   1.122   
7045.0   0.9431   
7050.0   0.8046   
7055.0   0.6951   
7060.0   0.6046   
7065.0   0.5335   
7070.0   0.4696   
7075.0   0.421   
7080.0   0.3783   
7085.0   0.3376   
7090.0   0.3085   
7095.0   0.2819   
7100.0   0.2547   
7105.0   0.2329   
7110.0   0.211   
7115.0   0.1923   
7120.0   0.1755   
7125.0   0.1569   
7130.0   0.139   
7135.0   0.1264   
7140.0   0.1116   
7145.0   0.1021   
7150.0   0.0894   
7155.0   0.0805   
7160.0   0.0705   
7165.0   0.0648   
7170.0   0.0554   
7175.0   0.0521   
7180.0   0.0482   
7185.0   0.0432   
7190.0   0.0401   
7195.0   0.0358   
7200.0   0.0324   
7205.0   0.0311   
7210.0   0.0289   
7215.0   0.0273   
7220.0   0.025   
7225.0   0.0232   
7230.0   0.0234   
7235.0   0.0232   
7240.0   0.021   
7245.0   0.0213   
7250.0   0.0206   
7255.0   0.0194   
7260.0   0.0204   
7265.0   0.0219   
7270.0   0.0201   
7275.0   0.0213   
7280.0   0.0196   
7285.0   0.0224   
7290.0   0.0215   
7295.0   0.0227   
7300.0   0.0237   
7305.0   0.0239   
7310.0   0.0232   
7315.0   0.0254   
7320.0   0.0251   
7325.0   0.0275   
7330.0   0.0272   
7335.0   0.0283   
7340.0   0.0271   
7345.0   0.0268   
7350.0   0.0271   
7355.0   0.0268   
7360.0   0.0244   
7365.0   0.0237   
7370.0   0.0226   
7375.0   0.0202   
7380.0   0.0197   
7385.0   0.0184   
7390.0   0.0183   
7395.0   0.0156   
7400.0   0.0143   
7405.0   0.0139   
7410.0   0.0131   
7415.0   0.012   
7420.0   0.01   
7425.0   0.0099   
7430.0   0.0095   
7435.0   0.0097   
7440.0   0.0101   
7445.0   0.0088   
7450.0   0.0086   
7455.0   0.009   
7460.0   0.0079   
7465.0   0.0084   
7470.0   0.0082   
7475.0   0.0077   
7480.0   0.0077   
7485.0   0.0077   
7490.0   0.0068   
7495.0   0.0078   
7500.0   0.0055   
